V	Current	
-5	-0.00121
-4.99	-0.0012
-4.98	-0.00119
-4.97	-0.00118
-4.96	-0.00117
-4.95	-0.00116
-4.94	-0.00115
-4.93	-0.00114
-4.92	-0.00112
-4.91	-0.00111
-4.9	-0.0011
-4.89	-0.00109
-4.88	-0.00108
-4.87	-0.00107
-4.86	-0.00106
-4.85	-0.00105
-4.84	-0.00105
-4.83	-0.00104
-4.82	-0.00103
-4.81	-0.00102
-4.8	-0.00101
-4.79	-9.98003E-4
-4.78	-9.88788E-4
-4.77	-9.79649E-4
-4.76	-9.70586E-4
-4.75	-9.61598E-4
-4.74	-9.52685E-4
-4.73	-9.43846E-4
-4.72	-9.35081E-4
-4.71	-9.2639E-4
-4.7	-9.17771E-4
-4.69	-9.09225E-4
-4.68	-9.00751E-4
-4.67	-8.92349E-4
-4.66	-8.84017E-4
-4.65	-8.75757E-4
-4.64	-8.67566E-4
-4.63	-8.59446E-4
-4.62	-8.51394E-4
-4.61	-8.43412E-4
-4.6	-8.35497E-4
-4.59	-8.27651E-4
-4.58	-8.19872E-4
-4.57	-8.1216E-4
-4.56	-8.04515E-4
-4.55	-7.96936E-4
-4.54	-7.89422E-4
-4.53	-7.81974E-4
-4.52	-7.74591E-4
-4.51	-7.67272E-4
-4.5	-7.60016E-4
-4.49	-7.52825E-4
-4.48	-7.45696E-4
-4.47	-7.3863E-4
-4.46	-7.31626E-4
-4.45	-7.24683E-4
-4.44	-7.17802E-4
-4.43	-7.10982E-4
-4.42	-7.04222E-4
-4.41	-6.97522E-4
-4.4	-6.90882E-4
-4.39	-6.843E-4
-4.38	-6.77778E-4
-4.37	-6.71313E-4
-4.36	-6.64907E-4
-4.35	-6.58558E-4
-4.34	-6.52266E-4
-4.33	-6.4603E-4
-4.32	-6.39851E-4
-4.31	-6.33727E-4
-4.3	-6.27658E-4
-4.29	-6.21645E-4
-4.28	-6.15686E-4
-4.27	-6.09781E-4
-4.26	-6.0393E-4
-4.25	-5.98131E-4
-4.24	-5.92386E-4
-4.23	-5.86694E-4
-4.22	-5.81053E-4
-4.21	-5.75464E-4
-4.2	-5.69926E-4
-4.19	-5.64439E-4
-4.18	-5.59002E-4
-4.17	-5.53616E-4
-4.16	-5.48279E-4
-4.15	-5.42991E-4
-4.14	-5.37753E-4
-4.13	-5.32562E-4
-4.12	-5.2742E-4
-4.11	-5.22326E-4
-4.1	-5.17279E-4
-4.09	-5.12279E-4
-4.08	-5.07325E-4
-4.07	-5.02418E-4
-4.06	-4.97557E-4
-4.05	-4.92741E-4
-4.04	-4.8797E-4
-4.03	-4.83243E-4
-4.02	-4.78562E-4
-4.01	-4.73924E-4
-4	-4.69329E-4
-3.99	-4.64779E-4
-3.98	-4.6027E-4
-3.97	-4.55805E-4
-3.96	-4.51382E-4
-3.95	-4.47E-4
-3.94	-4.4266E-4
-3.93	-4.38361E-4
-3.92	-4.34103E-4
-3.91	-4.29885E-4
-3.9	-4.25708E-4
-3.89	-4.2157E-4
-3.88	-4.17471E-4
-3.87	-4.13412E-4
-3.86	-4.09391E-4
-3.85	-4.05409E-4
-3.84	-4.01465E-4
-3.83	-3.97559E-4
-3.82	-3.9369E-4
-3.81	-3.89858E-4
-3.8	-3.86063E-4
-3.79	-3.82304E-4
-3.78	-3.78581E-4
-3.77	-3.74895E-4
-3.76	-3.71243E-4
-3.75	-3.67627E-4
-3.74	-3.64046E-4
-3.73	-3.60499E-4
-3.72	-3.56987E-4
-3.71	-3.53508E-4
-3.7	-3.50063E-4
-3.69	-3.46652E-4
-3.68	-3.43273E-4
-3.67	-3.39927E-4
-3.66	-3.36614E-4
-3.65	-3.33333E-4
-3.64	-3.30083E-4
-3.63	-3.26865E-4
-3.62	-3.23679E-4
-3.61	-3.20523E-4
-3.6	-3.17398E-4
-3.59	-3.14304E-4
-3.58	-3.11239E-4
-3.57	-3.08205E-4
-3.56	-3.052E-4
-3.55	-3.02224E-4
-3.54	-2.99278E-4
-3.53	-2.9636E-4
-3.52	-2.93471E-4
-3.51	-2.9061E-4
-3.5	-2.87777E-4
-3.49	-2.84971E-4
-3.48	-2.82193E-4
-3.47	-2.79443E-4
-3.46	-2.76719E-4
-3.45	-2.74022E-4
-3.44	-2.71351E-4
-3.43	-2.68706E-4
-3.42	-2.66088E-4
-3.41	-2.63495E-4
-3.4	-2.60927E-4
-3.39	-2.58385E-4
-3.38	-2.55868E-4
-3.37	-2.53375E-4
-3.36	-2.50907E-4
-3.35	-2.48463E-4
-3.34	-2.46043E-4
-3.33	-2.43647E-4
-3.32	-2.41274E-4
-3.31	-2.38925E-4
-3.3	-2.36599E-4
-3.29	-2.34296E-4
-3.28	-2.32015E-4
-3.27	-2.29757E-4
-3.26	-2.27521E-4
-3.25	-2.25307E-4
-3.24	-2.23114E-4
-3.23	-2.20944E-4
-3.22	-2.18794E-4
-3.21	-2.16666E-4
-3.2	-2.14559E-4
-3.19	-2.12472E-4
-3.18	-2.10406E-4
-3.17	-2.08361E-4
-3.16	-2.06335E-4
-3.15	-2.04329E-4
-3.14	-2.02344E-4
-3.13	-2.00377E-4
-3.12	-1.9843E-4
-3.11	-1.96502E-4
-3.1	-1.94593E-4
-3.09	-1.92703E-4
-3.08	-1.90832E-4
-3.07	-1.88978E-4
-3.06	-1.87143E-4
-3.05	-1.85326E-4
-3.04	-1.83527E-4
-3.03	-1.81746E-4
-3.02	-1.79982E-4
-3.01	-1.78235E-4
-3	-1.76506E-4
-2.99	-1.74793E-4
-2.98	-1.73097E-4
-2.97	-1.71418E-4
-2.96	-1.69756E-4
-2.95	-1.68109E-4
-2.94	-1.66479E-4
-2.93	-1.64865E-4
-2.92	-1.63266E-4
-2.91	-1.61684E-4
-2.9	-1.60116E-4
-2.89	-1.58564E-4
-2.88	-1.57028E-4
-2.87	-1.55506E-4
-2.86	-1.53999E-4
-2.85	-1.52507E-4
-2.84	-1.51029E-4
-2.83	-1.49566E-4
-2.82	-1.48117E-4
-2.81	-1.46682E-4
-2.8	-1.45261E-4
-2.79	-1.43854E-4
-2.78	-1.42461E-4
-2.77	-1.41081E-4
-2.76	-1.39715E-4
-2.75	-1.38362E-4
-2.74	-1.37022E-4
-2.73	-1.35695E-4
-2.72	-1.34381E-4
-2.71	-1.33079E-4
-2.7	-1.31791E-4
-2.69	-1.30514E-4
-2.68	-1.29251E-4
-2.67	-1.27999E-4
-2.66	-1.26759E-4
-2.65	-1.25532E-4
-2.64	-1.24316E-4
-2.63	-1.23112E-4
-2.62	-1.2192E-4
-2.61	-1.20739E-4
-2.6	-1.19569E-4
-2.59	-1.18411E-4
-2.58	-1.17264E-4
-2.57	-1.16127E-4
-2.56	-1.15002E-4
-2.55	-1.13888E-4
-2.54	-1.12784E-4
-2.53	-1.11691E-4
-2.52	-1.10608E-4
-2.51	-1.09535E-4
-2.5	-1.08473E-4
-2.49	-1.07421E-4
-2.48	-1.06379E-4
-2.47	-1.05347E-4
-2.46	-1.04325E-4
-2.45	-1.03312E-4
-2.44	-1.02309E-4
-2.43	-1.01316E-4
-2.42	-1.00332E-4
-2.41	-9.93572E-5
-2.4	-9.83917E-5
-2.39	-9.74353E-5
-2.38	-9.6488E-5
-2.37	-9.55496E-5
-2.36	-9.46201E-5
-2.35	-9.36993E-5
-2.34	-9.27871E-5
-2.33	-9.18835E-5
-2.32	-9.09885E-5
-2.31	-9.01017E-5
-2.3	-8.92233E-5
-2.29	-8.83532E-5
-2.28	-8.74911E-5
-2.27	-8.66371E-5
-2.26	-8.5791E-5
-2.25	-8.49528E-5
-2.24	-8.41224E-5
-2.23	-8.32997E-5
-2.22	-8.24847E-5
-2.21	-8.16772E-5
-2.2	-8.08772E-5
-2.19	-8.00845E-5
-2.18	-7.92992E-5
-2.17	-7.85211E-5
-2.16	-7.77502E-5
-2.15	-7.69863E-5
-2.14	-7.62295E-5
-2.13	-7.54796E-5
-2.12	-7.47366E-5
-2.11	-7.40003E-5
-2.1	-7.32708E-5
-2.09	-7.2548E-5
-2.08	-7.18317E-5
-2.07	-7.11219E-5
-2.06	-7.04186E-5
-2.05	-6.97216E-5
-2.04	-6.9031E-5
-2.03	-6.83466E-5
-2.02	-6.76684E-5
-2.01	-6.69963E-5
-2	-6.63302E-5
-1.99	-6.56701E-5
-1.98	-6.50159E-5
-1.97	-6.43676E-5
-1.96	-6.37251E-5
-1.95	-6.30883E-5
-1.94	-6.24572E-5
-1.93	-6.18317E-5
-1.92	-6.12118E-5
-1.91	-6.05974E-5
-1.9	-5.99884E-5
-1.89	-5.93847E-5
-1.88	-5.87864E-5
-1.87	-5.81934E-5
-1.86	-5.76056E-5
-1.85	-5.70229E-5
-1.84	-5.64454E-5
-1.83	-5.58729E-5
-1.82	-5.53054E-5
-1.81	-5.47428E-5
-1.8	-5.41851E-5
-1.79	-5.36323E-5
-1.78	-5.30842E-5
-1.77	-5.25409E-5
-1.76	-5.20023E-5
-1.75	-5.14683E-5
-1.74	-5.0939E-5
-1.73	-5.04141E-5
-1.72	-4.98937E-5
-1.71	-4.93778E-5
-1.7	-4.88663E-5
-1.69	-4.83592E-5
-1.68	-4.78563E-5
-1.67	-4.73577E-5
-1.66	-4.68634E-5
-1.65	-4.63732E-5
-1.64	-4.58871E-5
-1.63	-4.54051E-5
-1.62	-4.49272E-5
-1.61	-4.44532E-5
-1.6	-4.39832E-5
-1.59	-4.35172E-5
-1.58	-4.3055E-5
-1.57	-4.25966E-5
-1.56	-4.21421E-5
-1.55	-4.16912E-5
-1.54	-4.12441E-5
-1.53	-4.08007E-5
-1.52	-4.03609E-5
-1.51	-3.99248E-5
-1.5	-3.94921E-5
-1.49	-3.9063E-5
-1.48	-3.86374E-5
-1.47	-3.82153E-5
-1.46	-3.77965E-5
-1.45	-3.73811E-5
-1.44	-3.69691E-5
-1.43	-3.65604E-5
-1.42	-3.6155E-5
-1.41	-3.57528E-5
-1.4	-3.47986E-5
-1.39	-3.4958E-5
-1.38	-3.45653E-5
-1.37	-3.41757E-5
-1.36	-3.37892E-5
-1.35	-3.34057E-5
-1.34	-3.30253E-5
-1.33	-3.26478E-5
-1.32	-3.22733E-5
-1.31	-3.19017E-5
-1.3	-3.1533E-5
-1.29	-3.11671E-5
-1.28	-3.08041E-5
-1.27	-3.04439E-5
-1.26	-3.00864E-5
-1.25	-2.97317E-5
-1.24	-2.93797E-5
-1.23	-2.90304E-5
-1.22	-2.86837E-5
-1.21	-2.83397E-5
-1.2	-2.79983E-5
-1.19	-2.76594E-5
-1.18	-2.73231E-5
-1.17	-2.69894E-5
-1.16	-2.66581E-5
-1.15	-2.58894E-5
-1.14	-2.6003E-5
-1.13	-2.56791E-5
-1.12	-2.53575E-5
-1.11	-2.50384E-5
-1.1	-2.47216E-5
-1.09	-2.44072E-5
-1.08	-2.4095E-5
-1.07	-2.37851E-5
-1.06	-2.34775E-5
-1.05	-2.31721E-5
-1.04	-2.2869E-5
-1.03	-2.2568E-5
-1.02	-2.22692E-5
-1.01	-2.19725E-5
-1	-2.1678E-5
-0.99	-2.13831E-5
-0.98	-2.10904E-5
-0.97	-2.07998E-5
-0.96	-2.05112E-5
-0.95	-2.02247E-5
-0.94	-1.99402E-5
-0.93	-1.96577E-5
-0.92	-1.93772E-5
-0.91	-1.90987E-5
-0.9	-1.88221E-5
-0.89	-1.85475E-5
-0.88	-1.82748E-5
-0.87	-1.80039E-5
-0.86	-1.7735E-5
-0.85	-1.74679E-5
-0.84	-1.72026E-5
-0.83	-1.69392E-5
-0.82	-1.66776E-5
-0.81	-1.64177E-5
-0.8	-1.61597E-5
-0.79	-1.59034E-5
-0.78	-1.56488E-5
-0.77	-1.53959E-5
-0.76	-1.51448E-5
-0.75	-1.48953E-5
-0.74	-1.46475E-5
-0.73	-1.44013E-5
-0.72	-1.41568E-5
-0.71	-1.39139E-5
-0.7	-1.36727E-5
-0.69	-1.3433E-5
-0.68	-1.31948E-5
-0.67	-1.29583E-5
-0.66	-1.27233E-5
-0.65	-1.24898E-5
-0.64	-1.22578E-5
-0.63	-1.20274E-5
-0.62	-1.17984E-5
-0.61	-1.15709E-5
-0.6	-1.13449E-5
-0.59	-1.11203E-5
-0.58	-1.08971E-5
-0.57	-1.06754E-5
-0.56	-1.04551E-5
-0.55	-1.02361E-5
-0.54	-1.00186E-5
-0.53	-9.80242E-6
-0.52	-9.58759E-6
-0.51	-9.37412E-6
-0.5	-9.16197E-6
-0.49	-8.95114E-6
-0.48	-8.74162E-6
-0.47	-8.53339E-6
-0.46	-8.32645E-6
-0.45	-8.12077E-6
-0.44	-7.91635E-6
-0.43	-7.71318E-6
-0.42	-7.51124E-6
-0.41	-7.31053E-6
-0.4	-7.11102E-6
-0.39	-6.91272E-6
-0.38	-6.7156E-6
-0.37	-6.51966E-6
-0.36	-6.32489E-6
-0.35	-6.13127E-6
-0.34	-5.9388E-6
-0.33	-5.74746E-6
-0.32	-5.55724E-6
-0.31	-5.36813E-6
-0.3	-5.18013E-6
-0.29	-4.99321E-6
-0.28	-4.80737E-6
-0.27	-4.6226E-6
-0.26	-4.43889E-6
-0.25	-4.25622E-6
-0.24	-4.07459E-6
-0.23	-3.89399E-6
-0.22	-3.71441E-6
-0.21	-3.53583E-6
-0.2	-3.35824E-6
-0.19	-3.18164E-6
-0.18	-3.00602E-6
-0.17	-2.83136E-6
-0.16	-2.65765E-6
-0.15	-2.48489E-6
-0.14	-2.31307E-6
-0.13	-2.14216E-6
-0.12	-1.97218E-6
-0.11	-1.80309E-6
-0.1	-1.6349E-6
-0.09	-1.4676E-6
-0.08	-1.30117E-6
-0.07	-1.1356E-6
-0.06	-9.70889E-7
-0.05	-8.07021E-7
-0.04	-6.43988E-7
-0.03	-4.81779E-7
-0.02	-3.20385E-7
-0.01	-1.59795E-7
0	0
0.01	1.5901E-7
0.02	3.17245E-7
0.03	4.74715E-7
0.04	6.3143E-7
0.05	7.874E-7
0.06	9.42634E-7
0.07	1.09714E-6
0.08	1.25094E-6
0.09	1.40402E-6
0.1	1.55642E-6
0.11	1.70812E-6
0.12	1.85915E-6
0.13	2.00952E-6
0.14	2.15923E-6
0.15	2.30829E-6
0.16	2.45672E-6
0.17	2.60452E-6
0.18	2.7517E-6
0.19	2.89828E-6
0.2	3.04426E-6
0.21	3.18966E-6
0.22	3.33447E-6
0.23	3.47873E-6
0.24	3.62242E-6
0.25	3.76557E-6
0.26	3.90819E-6
0.27	4.05028E-6
0.28	4.19185E-6
0.29	4.33291E-6
0.3	4.47348E-6
0.31	4.61356E-6
0.32	4.75317E-6
0.33	4.8923E-6
0.34	5.03099E-6
0.35	5.16922E-6
0.36	5.30702E-6
0.37	5.44439E-6
0.38	5.58135E-6
0.39	5.71789E-6
0.4	5.85405E-6
0.41	5.98981E-6
0.42	6.12519E-6
0.43	6.26021E-6
0.44	6.39487E-6
0.45	6.52918E-6
0.46	6.66316E-6
0.47	6.7968E-6
0.48	6.93013E-6
0.49	7.06314E-6
0.5	7.19586E-6
0.51	7.32828E-6
0.52	7.46043E-6
0.53	7.5923E-6
0.54	7.72391E-6
0.55	7.85526E-6
0.56	7.98638E-6
0.57	8.11726E-6
0.58	8.24791E-6
0.59	8.37834E-6
0.6	8.50857E-6
0.61	8.6386E-6
0.62	8.76844E-6
0.63	8.8981E-6
0.64	9.02759E-6
0.65	9.15691E-6
0.66	9.28608E-6
0.67	9.4151E-6
0.68	9.54398E-6
0.69	9.67274E-6
0.7	9.80137E-6
0.71	9.92988E-6
0.72	1.00583E-5
0.73	1.01866E-5
0.74	1.03148E-5
0.75	1.0443E-5
0.76	1.0571E-5
0.77	1.0699E-5
0.78	1.08269E-5
0.79	1.09548E-5
0.8	1.10826E-5
0.81	1.12104E-5
0.82	1.13382E-5
0.83	1.14659E-5
0.84	1.15936E-5
0.85	1.17213E-5
0.86	1.18489E-5
0.87	1.19766E-5
0.88	1.21043E-5
0.89	1.22319E-5
0.9	1.23596E-5
0.91	1.24873E-5
0.92	1.26151E-5
0.93	1.27428E-5
0.94	1.28706E-5
0.95	1.29984E-5
0.96	1.31263E-5
0.97	1.32542E-5
0.98	1.33821E-5
0.99	1.35101E-5
1	1.36382E-5
1.01	1.37647E-5
1.02	1.38913E-5
1.03	1.4018E-5
1.04	1.41447E-5
1.05	1.42715E-5
1.06	1.43984E-5
1.07	1.45253E-5
1.08	1.46523E-5
1.09	1.47793E-5
1.1	1.49065E-5
1.11	1.50337E-5
1.12	1.51609E-5
1.13	1.52883E-5
1.14	1.54157E-5
1.15	1.52823E-5
1.16	1.56707E-5
1.17	1.57984E-5
1.18	1.59261E-5
1.19	1.60538E-5
1.2	1.61817E-5
1.21	1.63096E-5
1.22	1.64376E-5
1.23	1.65656E-5
1.24	1.66938E-5
1.25	1.68219E-5
1.26	1.69502E-5
1.27	1.70785E-5
1.28	1.72068E-5
1.29	1.73352E-5
1.3	1.74637E-5
1.31	1.75922E-5
1.32	1.77207E-5
1.33	1.78493E-5
1.34	1.79779E-5
1.35	1.81066E-5
1.36	1.82353E-5
1.37	1.8364E-5
1.38	1.84927E-5
1.39	1.86214E-5
1.4	1.84594E-5
1.41	1.88788E-5
1.42	1.90076E-5
1.43	1.91363E-5
1.44	1.9265E-5
1.45	1.93936E-5
1.46	1.95223E-5
1.47	1.96509E-5
1.48	1.97794E-5
1.49	1.99079E-5
1.5	2.00364E-5
1.51	2.01648E-5
1.52	2.02931E-5
1.53	2.04213E-5
1.54	2.05495E-5
1.55	2.06775E-5
1.56	2.08055E-5
1.57	2.09333E-5
1.58	2.1061E-5
1.59	2.11886E-5
1.6	2.1316E-5
1.61	2.14433E-5
1.62	2.15705E-5
1.63	2.16974E-5
1.64	2.18242E-5
1.65	2.19509E-5
1.66	2.20773E-5
1.67	2.22035E-5
1.68	2.23295E-5
1.69	2.24553E-5
1.7	2.25809E-5
1.71	2.27062E-5
1.72	2.28312E-5
1.73	2.2956E-5
1.74	2.30806E-5
1.75	2.32048E-5
1.76	2.33287E-5
1.77	2.34524E-5
1.78	2.35757E-5
1.79	2.36987E-5
1.8	2.38214E-5
1.81	2.39437E-5
1.82	2.40657E-5
1.83	2.41873E-5
1.84	2.43085E-5
1.85	2.44293E-5
1.86	2.45498E-5
1.87	2.46698E-5
1.88	2.47894E-5
1.89	2.49086E-5
1.9	2.50273E-5
1.91	2.51456E-5
1.92	2.52634E-5
1.93	2.53808E-5
1.94	2.54976E-5
1.95	2.5614E-5
1.96	2.57298E-5
1.97	2.58452E-5
1.98	2.596E-5
1.99	2.60743E-5
2	2.6188E-5
2.01	2.63012E-5
2.02	2.64138E-5
2.03	2.65259E-5
2.04	2.66373E-5
2.05	2.67482E-5
2.06	2.68584E-5
2.07	2.69681E-5
2.08	2.70771E-5
2.09	2.71855E-5
2.1	2.72932E-5
2.11	2.74003E-5
2.12	2.75068E-5
2.13	2.76125E-5
2.14	2.77176E-5
2.15	2.7822E-5
2.16	2.79257E-5
2.17	2.80287E-5
2.18	2.8131E-5
2.19	2.82326E-5
2.2	2.83335E-5
2.21	2.84336E-5
2.22	2.8533E-5
2.23	2.86317E-5
2.24	2.87296E-5
2.25	2.88268E-5
2.26	2.89232E-5
2.27	2.90188E-5
2.28	2.91136E-5
2.29	2.92077E-5
2.3	2.9301E-5
2.31	2.93935E-5
2.32	2.94852E-5
2.33	2.95762E-5
2.34	2.96663E-5
2.35	2.97556E-5
2.36	2.98441E-5
2.37	2.99319E-5
2.38	3.00188E-5
2.39	3.01049E-5
2.4	3.01901E-5
2.41	3.02746E-5
2.42	3.03583E-5
2.43	3.04411E-5
2.44	3.05231E-5
2.45	3.06043E-5
2.46	3.06847E-5
2.47	3.07643E-5
2.48	3.08431E-5
2.49	3.0921E-5
2.5	3.09982E-5
2.51	3.10745E-5
2.52	3.115E-5
2.53	3.12248E-5
2.54	3.12987E-5
2.55	3.13719E-5
2.56	3.14443E-5
2.57	3.15158E-5
2.58	3.15867E-5
2.59	3.16567E-5
2.6	3.1726E-5
2.61	3.17945E-5
2.62	3.18623E-5
2.63	3.19294E-5
2.64	3.19957E-5
2.65	3.20613E-5
2.66	3.21262E-5
2.67	3.21904E-5
2.68	3.22539E-5
2.69	3.23167E-5
2.7	3.23789E-5
2.71	3.24404E-5
2.72	3.25013E-5
2.73	3.25615E-5
2.74	3.26212E-5
2.75	3.26803E-5
2.76	3.27387E-5
2.77	3.27967E-5
2.78	3.2854E-5
2.79	3.29109E-5
2.8	3.29672E-5
2.81	3.30231E-5
2.82	3.30785E-5
2.83	3.31335E-5
2.84	3.3188E-5
2.85	3.32421E-5
2.86	3.32958E-5
2.87	3.33492E-5
2.88	3.34023E-5
2.89	3.3455E-5
2.9	3.35075E-5
2.91	3.35597E-5
2.92	3.36116E-5
2.93	3.36634E-5
2.94	3.3715E-5
2.95	3.37665E-5
2.96	3.38178E-5
2.97	3.38691E-5
2.98	3.39203E-5
2.99	3.39715E-5
3	3.40227E-5
3.01	3.4074E-5
3.02	3.41254E-5
3.03	3.41769E-5
3.04	3.42285E-5
3.05	3.42804E-5
3.06	3.43325E-5
3.07	3.43848E-5
3.08	3.44375E-5
3.09	3.44906E-5
3.1	3.4544E-5
3.11	3.45979E-5
3.12	3.46523E-5
3.13	3.47072E-5
3.14	3.47627E-5
3.15	3.48189E-5
3.16	3.48757E-5
3.17	3.49333E-5
3.18	3.49916E-5
3.19	3.50508E-5
3.2	3.51108E-5
3.21	3.51718E-5
3.22	3.52338E-5
3.23	3.52968E-5
3.24	3.53609E-5
3.25	3.54262E-5
3.26	3.54927E-5
3.27	3.55605E-5
3.28	3.56297E-5
3.29	3.57002E-5
3.3	3.57722E-5
3.31	3.58457E-5
3.32	3.59209E-5
3.33	3.59977E-5
3.34	3.60762E-5
3.35	3.61565E-5
3.36	3.62388E-5
3.37	3.63229E-5
3.38	3.64091E-5
3.39	3.64973E-5
3.4	3.65877E-5
3.41	3.66804E-5
3.42	3.67753E-5
3.43	3.68727E-5
3.44	3.69725E-5
3.45	3.70749E-5
3.46	3.718E-5
3.47	3.72877E-5
3.48	3.73983E-5
3.49	3.75117E-5
3.5	3.76282E-5
3.51	3.77477E-5
3.52	3.78703E-5
3.53	3.79962E-5
3.54	3.81255E-5
3.55	3.82582E-5
3.56	3.83944E-5
3.57	3.85342E-5
3.58	3.86778E-5
3.59	3.88252E-5
3.6	3.89765E-5
3.61	3.91318E-5
3.62	3.92913E-5
3.63	3.9455E-5
3.64	3.96231E-5
3.65	3.97956E-5
3.66	3.99726E-5
3.67	4.01543E-5
3.68	4.03409E-5
3.69	4.05323E-5
3.7	4.07287E-5
3.71	4.09302E-5
3.72	4.1137E-5
3.73	4.13491E-5
3.74	4.15667E-5
3.75	4.17899E-5
3.76	4.20189E-5
3.77	4.22537E-5
3.78	4.24944E-5
3.79	4.27413E-5
3.8	4.29944E-5
3.81	4.32539E-5
3.82	4.35199E-5
3.83	4.37925E-5
3.84	4.40719E-5
3.85	4.43582E-5
3.86	4.46515E-5
3.87	4.49521E-5
3.88	4.52599E-5
3.89	4.55752E-5
3.9	4.58982E-5
3.91	4.62289E-5
3.92	4.65675E-5
3.93	4.69142E-5
3.94	4.72691E-5
3.95	4.76324E-5
3.96	4.80042E-5
3.97	4.83847E-5
3.98	4.8774E-5
3.99	4.91723E-5
4	4.95798E-5
4.01	4.99966E-5
4.02	5.04229E-5
4.03	5.08589E-5
4.04	5.13047E-5
4.05	5.17605E-5
4.06	5.22265E-5
4.07	5.27028E-5
4.08	5.31897E-5
4.09	5.36872E-5
4.1	5.41956E-5
4.11	5.47151E-5
4.12	5.52459E-5
4.13	5.57881E-5
4.14	5.63419E-5
4.15	5.69075E-5
4.16	5.74851E-5
4.17	5.8075E-5
4.18	5.86772E-5
4.19	5.9292E-5
4.2	5.99196E-5
4.21	6.05602E-5
4.22	6.12139E-5
4.23	6.18811E-5
4.24	6.25619E-5
4.25	6.32565E-5
4.26	6.39651E-5
4.27	6.4688E-5
4.28	6.54253E-5
4.29	6.61774E-5
4.3	6.69443E-5
4.31	6.77263E-5
4.32	6.85236E-5
4.33	6.93366E-5
4.34	7.01653E-5
4.35	7.10101E-5
4.36	7.18711E-5
4.37	7.27486E-5
4.38	7.36429E-5
4.39	7.45541E-5
4.4	7.54826E-5
4.41	7.64285E-5
4.42	7.73922E-5
4.43	7.83738E-5
4.44	7.93736E-5
4.45	8.03919E-5
4.46	8.14289E-5
4.47	8.24849E-5
4.48	8.35601E-5
4.49	8.46549E-5
4.5	8.57694E-5
4.51	8.6904E-5
4.52	8.80589E-5
4.53	8.92344E-5
4.54	9.04308E-5
4.55	9.16483E-5
4.56	9.28873E-5
4.57	9.4148E-5
4.58	9.54307E-5
4.59	9.67358E-5
4.6	9.80634E-5
4.61	9.94139E-5
4.62	1.00788E-4
4.63	1.02185E-4
4.64	1.03606E-4
4.65	1.05051E-4
4.66	1.0652E-4
4.67	1.08015E-4
4.68	1.09534E-4
4.69	1.11079E-4
4.7	1.12649E-4
4.71	1.14246E-4
4.72	1.15868E-4
4.73	1.17518E-4
4.74	1.19194E-4
4.75	1.20898E-4
4.76	1.2263E-4
4.77	1.2439E-4
4.78	1.26178E-4
4.79	1.27994E-4
4.8	1.2984E-4
4.81	1.31716E-4
4.82	1.33621E-4
4.83	1.35556E-4
4.84	1.37522E-4
4.85	1.39519E-4
4.86	1.41547E-4
4.87	1.43607E-4
4.88	1.45699E-4
4.89	1.47823E-4
4.9	1.49981E-4
4.91	1.52171E-4
4.92	1.54395E-4
4.93	1.56653E-4
4.94	1.58946E-4
4.95	1.61274E-4
4.96	1.63636E-4
4.97	1.66035E-4
4.98	1.68469E-4
4.99	1.7094E-4
5	1.73448E-4
5.01	1.75994E-4
5.02	1.78577E-4
5.03	1.81199E-4
5.04	1.83859E-4
5.05	1.86558E-4
5.06	1.89297E-4
5.07	1.92076E-4
5.08	1.94896E-4
5.09	1.97756E-4
5.1	2.00658E-4
5.11	2.03602E-4
5.12	2.06589E-4
5.13	2.09618E-4
5.14	2.12691E-4
5.15	2.15807E-4
5.16	2.18968E-4
5.17	2.22173E-4
5.18	2.25424E-4
5.19	2.28721E-4
5.2	2.32065E-4
5.21	2.35455E-4
5.22	2.38892E-4
5.23	2.42378E-4
5.24	2.45912E-4
5.25	2.49494E-4
5.26	2.53127E-4
5.27	2.56809E-4
5.28	2.60542E-4
5.29	2.64327E-4
5.3	2.68163E-4
5.31	2.72051E-4
5.32	2.75992E-4
5.33	2.79987E-4
5.34	2.84035E-4
5.35	2.88138E-4
5.36	2.92297E-4
5.37	2.96511E-4
5.38	3.00781E-4
5.39	3.05108E-4
5.4	3.09493E-4
5.41	3.13936E-4
5.42	3.18438E-4
5.43	3.22999E-4
5.44	3.2762E-4
5.45	3.32301E-4
5.46	3.37044E-4
5.47	3.41849E-4
5.48	3.46716E-4
5.49	3.51647E-4
5.5	3.56641E-4
5.51	3.617E-4
5.52	3.66824E-4
5.53	3.72014E-4
5.54	3.7727E-4
5.55	3.82593E-4
5.56	3.87984E-4
5.57	3.93444E-4
5.58	3.98973E-4
5.59	4.04572E-4
5.6	4.10241E-4
5.61	4.15982E-4
5.62	4.21794E-4
5.63	4.2768E-4
5.64	4.33639E-4
5.65	4.39671E-4
5.66	4.45779E-4
5.67	4.51963E-4
5.68	4.58223E-4
5.69	4.6456E-4
5.7	4.70974E-4
5.71	4.77468E-4
5.72	4.8404E-4
5.73	4.90693E-4
5.74	4.97427E-4
5.75	5.04242E-4
5.76	5.1114E-4
5.77	5.18121E-4
5.78	5.25186E-4
5.79	5.32336E-4
5.8	5.39571E-4
5.81	5.46893E-4
5.82	5.54301E-4
5.83	5.61798E-4
5.84	5.69384E-4
5.85	5.77059E-4
5.86	5.84825E-4
5.87	5.92682E-4
5.88	6.00631E-4
5.89	6.08673E-4
5.9	6.16809E-4
5.91	6.25039E-4
5.92	6.33365E-4
5.93	6.41787E-4
5.94	6.50306E-4
5.95	6.58923E-4
5.96	6.6764E-4
5.97	6.76456E-4
5.98	6.85372E-4
5.99	6.9439E-4
6	7.03511E-4